<Actel_Data_File>
    <format name="NVM File" version="01.00.00"/>
    <header>
        <die>
            M2S010
        </die>
        <family>
            SmartFusion2
        </family>
        <module>
            
        </module>
        <package>
            144 TQ
        </package>
        <version>
            11.8.1.12
        </version>
    </header>
    <nvm>
        <region name="PGM_store" address="0x000000" retrieveAddressFromFile="false" size="18848" format="HEX" type="Data Storage" wordSize="8" numberWords="18848" memFile="C:\Users\Hiperwall\Desktop\Servo-arm3 - Copy\SoftConsole\servoarm\Release\servoarm.hex" memType="INTELHEX" memFileTimeStamp="" clientType="public" program="true">
            00000120910100007f030000810300008303000085030000870300000000
            0000000000000000000000000000890300008b030000000000008d030000
            8f03000091030000930300006d0c0000890c0000990300009b0300009d03
            00009f030000a1030000a3030000a5030000a7030000a9030000ab030000
            1d150000af030000b1030000b3030000b503000041060000b9030000bb03
            0000bd030000bf030000c1030000c3030000c5030000450d0000e50d0000
            cb030000cd030000cf030000d1030000d3030000d5030000f92e0000d903
            0000db030000dd030000df030000e1030000e3030000e5030000e7030000
            e9030000eb030000ed030000ef030000f1030000f3030000f5030000f703
            0000f9030000fb030000fd030000ff030000010400000304000005040000
            07040000090400000b0400000d0400000f04000011040000130400001504
            000017040000190400001b0400001d0400001f0400002104000023040000
            2504000027040000290400002b0400002d0400002f040000310400003304
            000000000000000000004ff0000bdff8be020068dff8b612096801f00301
            00f01c00142801d14bf0020b002901d04bf0010bbbf1000f05d0a748a749
            dff8722200f09ff8a64880470bf0020abaf1000f0cd0dff86e02dff86e12
            02680b680fb44ff000024ff0ff0302600b609d489d4a9e4b022808d1dff8
            3e120a60dff842120a60dff836120b60012808d1dff82e120a60dff82a12
            0a60dff81e120b609348002809d193489349944a00f032f893489449944a
            00f02df894489449954a00f028f894489549dff8e62100f05af8bbf1000f
            12d092489249dff8da2100f051f80bf0020abaf1000f07d00fbc02600b60
            00bfaff30080aff30080dff828020ff2030e00474ff000004ff00001dff8
            1cf2fee72de9f841884225d0b2eb010200d5fee740ea010313f0030302d0
            00f01df819e04ff0000390461211f7d09a421cbff0c8f0c103f10103f8d1
            08f00f08b8f1000f08d004780c7000f1010001f10101b8f10108f6d1bde8
            f88108b54ff0000303780b7000f1010001f10101013af7d108bd884237d0
            00f00306002e14d04ff00405a5eb06044ff0080707fb06f8914669fa08f9
            002c07d080f8009069fa07f900f10100013cf5e74ff000060f46091a8846
            0911914614461546b14206d018bfa0e8340206f10106b142f8d108f00f08
            b8f1000f07d002704fea322200f10100b8f10108f4e77047fee7fee7fee7
            fee7fee7fee7fee7fee7fee7fee7fee7fee7fee7fee7fee7fee7fee7fee7
            fee7fee7fee7fee7fee7fee7fee7fee7fee7fee7fee7fee7fee7fee7fee7
            fee7fee7fee7fee7fee7fee7fee7fee7fee7fee7fee7fee7fee7fee7fee7
            fee7fee7fee7fee7fee7fee7fee7fee7fee7fee7fee7fee7fee7fee7fee7
            fee7fee7fee7fee7fee7fee7fee7fee7fee7fee7fee7fee7fee7fee7fee7
            fee7fee7fee7fee7fee7fee7fee7fee7fee7fee7fee7fee7fee770470000
            0000a2a2a2a2008003400880034010800340308003403480034038800340
            18080240000000f0002000000120e5130000000000000000000001000000
            00000000000000000000000090010000c0040000c0040000504500005045
            0000000000205004002050040020e0050020e005002000f0002041430000
            8d34000000000000000000000000000010b5054c237833b9044b13b10448
            aff300800123237010bd50040020000000002c450000084b10b51bb10848
            0849aff300800848036803b910bd074b002bfbd0bde81040184700bf0000
            00002c45000054040020000000200000000001607047006870470eb503fa
            01f303ea020301686fea020201ea020141ea030101600ebd006800ea0200
            20fa01f0704701807047008870470eb503fa01f303ea020301886fea0202
            01ea020141ea030101800ebd008800ea020020fa01f07047017070470078
            70470eb503fa01f303ea020301786fea020201ea020141ea030101700ebd
            007800ea020020fa01f0704730b4124c82b0236823f004032360636803f0
            01030193019babb181b1451e002201e08a420bd015f8013f013223616368
            03f001030193019b002bf2d11146084602b030bc70471946f9e700bf0060
            01400b4b10b50b4c1988236889b233b10a4a10689847094a002313702360
            084b1a46196841f0010119601368db07fcd410bd8c040020880400209404
            00207804002000600140944af8b553689468dbb21c40a0071dd4e10700d4
            f8bd904e3378022b60d0052b2fd0012b4ed08b4a8c4c936823f001039360
            23683bb18a4a002110689847894a00231370236000233370f8bd1069824e
            20f4ff43327823f07f039db2c0b2052a00f2bb80dfe812f090009c009c00
            a40063004f007c4b1a68002a40f08e80e307c8d57a4c236883b9794b1b68
            002b00f0d180784898472060236833b96d4a0321936823f0010393603170
            23686f4c002b40f0b480674a0321936823f0010393603170f8bd6c4c2388
            9bb2002b40f09280644b1b78002b9dd0bde8f840fff76ebf624c2368002b
            f3d0624d21682868fff73dff23689842ddd223682a681b1a104423602860
            f8bd002db4d1554b534f1a683b6850702bb1104602219847514b3d601d70
            00233370e2077ff574af7be7002d2fd1524a4a4913880d689bb22b4413f8
            013cf12b00f0a5804d49138809889bb28b4206d217881388bfb201339bb2
            e85513801388454a9bb299427ff451af3b4f13883a6899b2002ad3d02846
            9047394a002313703b60cce7002dccd0f12800f09080354b1a68002ac5d0
            1b68984737e7002d3ff435af304b1a68002af5d12fe7002db8d0334b1b78
            9842ead12f4a002313801188264d13882f68013389b29bb2042513807854
            3570a5e7204d2b68002b9fd01f4a0021106898471e4a002313702b6096e7
            244f21883d6889b22846fff7b5fe23889bb298421cd30022174b22801b68
            002b3ad002233370f8bd154d21682868fff7a3fe2a6823680244181a2a60
            2060f8bd0b4b1b78002b3ff436affff7bdfe32e7238805441b1a9bb23d60
            2380f8bd00bf00600140980400208804002094040020780400207c040020
            900400207004002084040020800400208c0400206c040020990400207404
            002003233370f8bd1188104f13888ab29bb23968a8541d4415f8010c0029
            3ff43baf3b68984737e70a4b00271f8019881a88084d013292b21a801b88
            2d688ab29bb20421a8543170ef5427e700bf7c0400208c04002094040020
            2c4a036890422de9f04f1c68d3f81880d3f804c0d3f828e01f6b5e6bdd69
            2cd0254a26491346d1f84890dff898a04ff0030b026080f804b049f48069
            0820c1f84890caf88001886c20f480608864116821f00041116024f00102
            1a60c3f81880c3f804c01a6842f001021a60c3f828e01f635e63dd61bde8
            f08f104a1049936cdff8409043f400734ff0020b4ff0040a016080f804b0
            9364c9f880a1d2f84890036829f4007090640a6822f000420a60d1e700bf
            4005002000100140008003400010004000e100e0026830b49368dd053dd4
            0369c568ab4210d28168194401e0ab420bd211f8014b0133546194680361
            e405f5d5ab4201d230bc70479368dd0510d4c36985699d4224d941691944
            01e0ab4207d211f8014b013354619468c361e405f5d5436a002be6d0c169
            83699942e2d3906810f48070ded1202301e0013bdad050619168c905f9d5
            30bc7047c5680369cfe7436a002bebd1cde710b590f8803082b0022b0cd0
            012b18d003689a68520604d41a6900929a685206fad502b010bd04462368
            03e01969626f00911ab99a685106f8d5f2e700989047f2e7026893685c06
            ebd4036bc16a14698b42019404d2826a0199d154036b0268916801334906
            0363f0d502b010bd00bf70b5036882b01a6a044692071d460ed590f88020
            022a36d0012a9a6803d190e01a6901929a685206fad50222da602a6ad607
            09d594f88020022a28d02046fff75dff23680122da602a6ad00648d42a6a
            51075cd42a6a12070bd5da6a94f8801042f008020229da625cd001297fd0
            0822da602b6a9b060dd402b070bd1969626f0191002a59d19a685606f7d5
            cde7a26f5a61d7e72046fff77bff236a256b002b63d02368002210216262
            6261a261e261d9609a6a0a439a62da6a002642f00c0226612046da62fff7
            19ffe36f266313b12946a06a984723682022da6002b070bd2046fff755ff
            236a2bb1a06a216b98472046fff703ff236810219a6a012022f010026062
            9a62d9602a6a5107a2d5da6a204642f00402da62fff78cfe23680422da60
            97e71a68a16f22f47f0222f47f4242f480721a60596199e7019890472368
            a1e750063ff571af226be16a18699142019004d9a36a01999954226b2368
            9968013249062263f0d55fe72368a4e7002323612046fff7c2fe236878e7
            684620f007018d4601b50348fff73affbde8014085467047400500206846
            20f007018d4601b50348fff72cffbde8014085467047bc0400202de9f041
            224cdff894e02468214d4fea840c0ceb04064fea8608f70108f1402606f5
            8036be44cef8043045447060b1606e68b2f5803f4fea16464fea06466e60
            1bd86b6892b214491a4300236a600b616444104aa3001a445168e40104f1
            844303f5201341f4e001012500245160c3f8c051c3f8cc41bde8f081074b
            a2f5803201f5803100f580301a61d9609860dfe7b8040020084001409c04
            0020c0012842684620f007018d4679b52048204a0368204c03eb83018900
            03f52875012644f825600a4451683344042b08bf002321f4e00151600360
            184b1a697ab11748016804290cbf0021013101609868d9681b7dfff786ff
            bde879408546704702680c4902eb8202920011444a68084c12f4e002f0d1
            0a4d5968012022602a6018700029e8d08847bde8794085467047b4040020
            08400140000028429c040020b8040020684620f007018d46244b31b51b68
            13f4706f19d0224c23689900ca18d20102f1844202f52012d2f808223ab1
            1d4a02205568107015b1a847236899000b441a4adb011a4453680bbb144b
            1b6813f4704f05d0144b04205a68187002b19047bde83140124a12490123
            c2f8c8318546c2f8803ac2f84834c1f8803ac2f8c836c1f8843ac2f84839
            c1f8883a7047054b03205a681870002ad7d09047d5e700400140b4040020
            9c040020080228420000284204002842f0b5044683b030b1072b1e4603d8
            b2f5005f154601d303b0f0bd0f4601f10800d1b2fff75ffb05f47f4146ea
            511107f10c00fff757fb276007f11000fff754fb82070cd520680430fff7
            4efb23688df8070003f11000fff747fb8307f2d40023237103b0f0bd00bf
            98b191b18ab170b504460d468e1820681030fff735fbc307f9d515f8011b
            2068fff72cfbb542f2d170bd7047f8b508b101b112b900252846f8bd0446
            0068174610300e46fff71cfb2379820743ea00032371efd5013e002501e0
            bd42ebd0206801350430fff70cfb06f8010f20681030fff706fb23790343
            23718307edd42846f8bd00bf034628b100790022c0f382001a717047ff20
            704738b5104b082905465c5c00680cd90c30fff7eafa2b6840ea0401c9b2
            03f10c00bde83840fff7deba0830fff7ddfa2b6840ea0401c9b203f10800
            bde83840fff7d1ba00bfc444000038b5104b082905465c5c00680cd90c30
            fff7c6fa2b6820ea0401c9b203f10c00bde83840fff7baba0830fff7b9fa
            2b6820ea0401c9b203f10800bde83840fff7adba00bfc444000070b50446
            16461d46016001f108000021fff7a0fa206800210c30fff79bfa31462068
            fff767fa206829460430fff762fa206800211030fff75dfa206800211830
            fff758fa206800212030fff753fa206800212830fff74efa206800213030
            fff749fa206800213830fff744fa206800214030fff73ffa206800214830
            fff73afa206800215030fff735fa206800215830fff730fa206800216030
            fff72bfa206800216830fff726fa206800217030fff721fa206800217830
            fff71cfa206800218030fff717fa206800218830bde87040fff710ba4b1e
            0f2b01d8fff76dbf704770b54c1e0f2c04d822b9bde87040fff763bf70bd
            06460c4615460b4a036852f8210000211844fff7f5f9084a336852f82400
            29461844fff7edf930462146bde87040fff725bf00bfd844000080440000
            70b506460c46027101f180053160204600210434fff706faac42f8d13379
            012b21d00ad3022b07d130684ff0ff318030bde87040fff7c6b970bd3068
            ff218030fff7f0f93068ff218430fff7ebf93068ff218830fff7e6f93068
            ff218c30bde87040fff7dfb930684ff6ff718030fff7c1f930684ff6ff71
            bde870408430fff7b9b900bf1f290b4600d970470068114600eb8300fff7
            96b938b503790446012b0d4621d008d3022b05d1bde838400068a030fff7
            87b938bd0068c9b2a030fff7b1f92068c5f30721a430fff7abf92068c5f3
            0741a830fff7a5f92068290eac30bde83840fff79eb9006889b2a030fff7
            81f92068290ca430bde83840fff77ab9037970b5012b044624d009d3022b
            05d1bde8704000689030fff756b9002070bd00689030fff780f905462068
            9430fff77bf9064620689830fff776f92368000440ea062403f19c00fff7
            6ef92c4344ea006070bd00689030fff74ef9054620689430fff749f945ea
            004070bd037970b5012b044624d009d3022b05d1bde870400068a030fff7
            20b9002070bd0068a030fff732f905462068a430fff72df906462068a830
            fff728f92368000440ea062403f1ac00fff720f92c4344ea006070bd0068
            a030fff718f905462068a430fff713f945ea004070bd1f29006800d97047
            10b500eb81042046fff71ef940f00801c9b22046bde81040fff714b91f29
            006800d9704710b500eb81042046fff70cf920f008012046bde81040fff7
            03b900bf38b503790124012b054604fa01f420d009d3022b06d100682146
            bde838408030fff7c0b838bd006821468030fff7eaf82868210a8430fff7
            e5f82868210c8830fff7e0f82868210e8c30bde83840fff7d9b800682146
            8030fff7bcf82868210c8430bde83840fff7b5b800bf4ff602020c4bd3f8
            4c11914206d00b4a536943f400735361fff71ab8d3f8982042f48072c3f8
            9820d3f8982022f08062c3f89820ebe700bf0080034000ed00e0f0b52e4b
            83b0d3f89820510117d4d3f89820d2042ed56a4629490868496803c2d3f8
            9c2002a9c2f382120a4412f8082c012a36d003d3dff8bce0224b09e0d3f8
            5011214a11f0040f204b18bf1346dff8a4e01f4f1f4e204d204c2148214a
            2249cef800303b6033602b6023600360116003b0f0bd1d4bdff87cc0dff8
            54e0154f164e174d1748184c134a1949ccf80030cef800303b6033602b60
            0460116003b0f0bddff850e00a4f0a4e0b4d0b4c0c480c4a0d494ff40043
            d2e700bf008003401c45000040420f0080f0fa0240787d01140000201800
            00200c000020100000200400002008000020c00e1602003b5808801d2c04
            1c00002010b50d4c2046fff7cffe02460b4b20461a601a6882f007021a60
            1968fff75afe074808490222fff7ddfc4ff0402301221a61bff34f8f10bd
            c405002020000020cc0500202400002000000000012910b50c460ad00229
            08d0032920d0042904d005292ed006293ad010bd02f07bfa0022002302f0
            19f921a3d3e9002302f0c6fa264b002202f010f902f0d2fc02f0a4fe2146
            bde8104002462148fff7a7bd02f061fa00221f4b02f0fff80022002302f0
            fbf814a3d3e9002302f0a8fa00221a4be0e702f04ffa0022002302f0edf8
            0fa3d3e9002302f09afa0022144bd2e702f041fa0022002302f0dff80aa3
            d3e9002302f08cfa00220e4bc4e700bf181818181818c83f1b1b1b1b1b1b
            cb3f5a5a5a5a5a5aca3fd9d8d8d8d8d8c83f00002840d405002000804440
            00002040000022400000264008b50b480621fff787ff0a480421fff783ff
            09480521fff77fff08480221fff77bffbde8084006480321fff775bf00bf
            000048420000024300008c420000b8420000f04100b583b0a0b101281cd0
            02281fd0032813d000230193019b0f4a934205dc019b01330193019b9342
            f9dd03b05df804fb0a480621fff74effebe709480621fff749ffe6e70748
            0621fff744ffe1e706480621fff73fffdce787f504000000f0420000dc42
            00000243000048422de9f043012a83b09046054689461e462ad02abb0846
            294602f0d8fd00b341f664174c460a9b07fb03f720460b99fff71bffcdf8
            0480019b9f4205dd019b01330193019b9f42f9dc3146204602f052fc8146
            2846494602f0affd08b14c46e4e7204603b0bde8f0830846294602f0a4fd
            0028f5d041f664174c460a9b4ff0000807fb03f720460b99fff7eefecdf8
            0080009b9f4205dd009b01330093009bbb42f9db3146204602f027fc8146
            2846494602f08cfd0028d3d04c46e3e710b505228ab002238de80c005448
            00224ff07e535349fff795ff00230293029b514a934205dc029b01330293
            029b9342f9dd0220fff750ff0a2203238de80c004a4801224ff07e534949
            fff77bff00230393039b444a934205dc039b01330393039b9342f9dd0023
            0493049b414a934205dc049b01330493049b9342f9dd0320fff72aff0023
            0593059b3b4a934205dc059b01330593059b9342f9dd0a2203238de80c00
            354800224ff07e532f49fff749ff00230693069b2b4a934205dc069b0133
            0693069b9342f9dd0a2203238de80c00264801224ff07e532849fff732ff
            00230793079b264a934205dc079b01330793079b9342f9dd0220fff7edfe
            00230893089b1e4a934205dc089b01330893089b9342f9dd0a2403230193
            134900224ff07e5300941248fff70cff0223019301224ff07e5300940a48
            0949fff702ff00230993099b0e4a934205dc099b01330993099b9342f9dd
            fff79cfe0ab010bd0000b6420000b8429f2e63000000a0420000f0413fd2
            df03ff741903000082424f97310000b50a2289b002238de80c0040480122
            4ff07e533f49fff7d3fe00230293029b3d4a934205dc029b01330293029b
            9342f9dd0a2203238de80c00384801224ff07e533749fff7bcfe00230393
            039b324a934205dc039b01330393039b9342f9dd0a2204238de80c002e48
            00224ff07e532d49fff7a5fe00230493049b264a934205dc049b01330493
            049b9342f9dd0320fff760fe00230593059b244a934205dc059b01330593
            059b9342f9dd0a2204238de80c001e4800224ff07e531949fff77ffe0023
            0693069b1a4a934205dc069b01330693069b9342f9dd0a2203238de80c00
            154800224ff07e530c49fff768fe00230793079b084a934205dc079b0133
            0793079b9342f9dd09b05df804fb00bf0000e0420000b8424f9731000000
            c8420000f0410000c442000002436f6d45000000c0422fc11d0000007042
            00b5052287b002238de80c002d4800224ff07c532c49fff735fe00230293
            029b2a4a934205dc029b01330293029b9342f9dd012205238de80c002248
            00224ff07e532349fff71efe00230393039b214a934205dc039b01330393
            039b9342f9dd0a2204238de80c001b4800224ff07e531a49fff707fe0023
            0493049b184a934205dc049b01330493049b9342f9dd0a2203238de80c00
            134801224ff07e531249fff7f0fd00230593059b084a934205dc059b0133
            0593059b9342f9dd07b05df804fb00bf000082420000e0424f9731000000
            8c421fd613000000a0420000c0422fc11d000000a8420000704200b50a22
            87b003238de80c00274801224ff07e532649fff7bffd00230393039b244a
            934205dc039b01330393039b9342f9dd052202238de80c001f4901224ff0
            7c531e48fff7a8fd0a2203238de80c001b4800224ff07e531449fff79dfd
            00230493049b134a934205dc049b01330493049b9342f9dd13480a220523
            8de80c00014600224ff07e53fff786fd00230593059b084a934205dc059b
            01330593059b9342f9dd07b05df804fb00bf0000b4420000a8424f973100
            0000824200008442000048420000704210b51c4884b00a24062301460193
            01224ff07e530094fff75bfd04230193164901224ff07e5300941448fff7
            51fd02230193134901224ff07e5300941148fff747fd0323019300224ff0
            7e5300940e480e49fff73dfd00230393039b0c4a934205dc039b01330393
            039b9342f9dd04b010bd00bf0000dc420000a04200000243000082420000
            b8420000f041000048424f97310010b50a2288b002238de80c0044480022
            4ff07e534349fff711fd00230293029b414a934205dc029b01330293029b
            9342f9dd0a2203238de80c003c4801224ff07e533b49fff7fafc00230393
            039b364a934205dc039b01330393039b9342f9dd0a2204238de80c003248
            00224ff07e533149fff7e3fc00230493049b2a4a934205dc049b01330493
            049b9342f9dd0a2203238de80c00294801224ff07e532349fff7ccfc0023
            0593059b254a934205dc059b01330593059b9342f9dd0320fff787fc0023
            0693069b1d4a934205dc069b01330693069b9342f9dd0a24042301931449
            00224ff07e5300940e48fff7a6fc0323019300224ff07e53009411480f49
            fff79cfc00230793079b074a934205dc079b01330793079b9342f9dd08b0
            10bd000082420000b8429f2e63000000aa420000f0410000c04200000243
            0000c8426f6d450000008c4200b5002389b00393039b394a934205dc039b
            01330393039b9342f9dd052202238de80c00334801224ff07e533249fff7
            61fc00230493049b2d4a934205dc049b01330493049b9342f9dd0a220523
            8de80c002a4800224ff07e532949fff74afc00230593059b274a934205dc
            059b01330593059b9342f9dd0a2204238de80c00214800224ff07e532049
            fff733fc00230693069b164a934205dc069b01330693069b9342f9dd0a22
            03238de80c00184801224ff07e531249fff71cfc00230793079b0b4a9342
            05dc079b01330793079b9342f9dd0a2205238de80c00074901224ff07e53
            0648fff705fc09b05df804fb9f2e63000000e04200008242000078420000
            8c424f9731000000a0420000f44200009e4200b50a2285b003238de80c00
            1b4901224ff07e531a48fff7e3fb052202238de80c00184800224ff07e53
            1749fff7d8fb00230293029b154a934205dc029b01330293029b9342f9dd
            0a2203238de80c000f4800224ff07e530949fff7c1fb00230393039b0b4a
            934205dc039b01330393039b9342f9dd05b05df804fb00009c420000b442
            0000da420000e0421fd61300000048424f97310010b5214884b00a240623
            0146019301224ff07e530094fff797fb042301931b4901224ff07e530094
            1948fff78dfb05230193184901224ff07e5300941648fff783fb02230193
            154901224ff07e5300941348fff779fb0323019300224ff07e5300941048
            1049fff76ffb00230393039b0e4a934205dc039b01330393039b9342f9dd
            04b010bd00bf0000dc420000a042000002430000784200008c420000de42
            0000b8420000f041000048424f97310000b50a2289b002238de80c004548
            00224ff07c534449fff73ffb00230293029b424a934205dc029b01330293
            029b9342f9dd0a2203238de80c003d4801224ff07e533c49fff728fb0023
            0393039b3a4a934205dc039b01330393039b9342f9dd0a2204238de80c00
            314800224ff07e533249fff711fb00230493049b304a934205dc049b0133
            0493049b9342f9dd0320fff7ccfa00230593059b2a4a934205dc059b0133
            0593059b9342f9dd0f2203238de80c001e4900224ff07e532248fff7ebfa
            0a2204238de80c00204800224ff07e531749fff7e0fa00230693069b134a
            934205dc069b01330693069b9342f9dd0f2203238de80c00154800224ff0
            7e531149fff7c9fa00230793079b074a934205dc079b01330793079b9342
            f9dd09b05df804fb0000ac420000b8424f9731000000c8420000f0415f82
            3b00000002431fd613006f6d45000000a0420000c64200008c4200b50a22
            87b002238de80c00214800224ff07e532049fff795fa00230393039b1e4a
            934205dc039b01330393039b9342f9dd0a2204238de80c00194800224ff0
            7e531849fff77efa00230493049b164a934205dc049b01330493049b9342
            f9dd0f2203238de80c00104801224ff07e530f49fff767fa00230593059b
            0d4a934205dc059b01330593059b9342f9dd07b05df804fb000040420000
            ac425f823b0000009e420000c6424f9731000000a44200008c427f584f00
            10b50a2286b003238de80c00304801224ff07e532f49fff739fa00230393
            039b2d4a934205dc039b01330393039b9342f9dd0a2202238de80c002848
            01224ff07e532749fff722fa00230493049b224a934205dc049b01330493
            049b9342f9dd0a24032301931a4900224ff07e5300941c48fff70bfa0423
            01931b4901224ff07e5300941948fff701fa194805230146019301224ff0
            7e530094fff7f7f90223019301224ff07e53009412481249fff7edf90023
            0593059b104a934205dc059b01330593059b9342f9dd06b010bd00bf0000
            b4420000a4421fd6130000004842000040420000f04100009e4200000243
            00008c420000b842000038424f97310000b50a2289b002238de80c004048
            00224ff07e533f49fff7b9f900230293029b3d4a934205dc029b01330293
            029b9342f9dd0a2204238de80c00384800224ff07e533749fff7a2f90023
            0393039b354a934205dc039b01330393039b9342f9dd0a2203238de80c00
            2f4801224ff07e532e49fff78bf900230493049b2c4a934205dc049b0133
            0493049b9342f9dd0320fff746f900230593059b264a934205dc059b0133
            0593059b9342f9dd0a2204238de80c00204800224ff07e531749fff765f9
            00230693069b134a934205dc069b01330693069b9342f9dd0a2203238de8
            0c00164800224ff07e530f49fff74ef900230793079b084a934205dc079b
            01330793079b9342f9dd09b05df804fb00bf000050420000b8424f973100
            0000a442000002430feb09000000b0420000f0415f823b006f6d45000000
            a0420000824200b50a2287b002238de80c00274801224ff07e532649fff7
            19f900230293029b244a934205dc029b01330293029b9342f9dd0a220423
            8de80c001f4800224ff07e531e49fff702f900230393039b1c4a934205dc
            039b01330393039b9342f9dd00230493049b174a934205dc049b01330493
            049b9342f9dd0a2203238de80c00114801224ff07e531049fff7dff80023
            0593059b074a934205dc059b01330593059b9342f9dd07b05df804fb0000
            be42000050424f97310000008e420000a0426f6d45001fd6130000009c42
            0000824200b50a2285b003238de80c00164801224ff07e531549fff7b1f8
            00230293029b134a934205dc029b01330293029b9342f9dd052202238de8
            0c000e4801224ff07c530d49fff79af800230393039b0b4a934205dc039b
            01330393039b9342f9dd05b05df804fb00bf0000ae4200009c424f973100
            0000b6420000be421fd6130010b5052386b00a240193274900224ff07e53
            00942548fff771f80423019301224ff07e53009422482249fff767f80023
            0393039b204a934205dc039b01330393039b9342f9dd0a2203238de80c00
            1b4800224ff07e531a49fff750f800230493049b154a934205dc049b0133
            0493049b9342f9dd0a2202238de80c00114801224ff07e531049fff739f8
            00230593059b094a934205dc059b01330593059b9342f9dd06b010bd00bf
            00008242000040420000024300008e424f9731000000f0410000ae420000
            b8420000b64200b50a2287b004238de80c00304901224ff07e532f48fff7
            0bf805230093019301224ff07e532c482c49fff701f800230293029b2a4a
            934205dc029b01330293029b9342f9dd05230093019300224ff07e532448
            2049fef7ebff00230393039b214a934205dc039b01330393039b9342f9dd
            05230093019301224ff07e5316481849fef7d5ff00230493049b164a9342
            05dc049b01330493049b9342f9dd05230093019300224ff07e530c480a49
            fef7bfff00230593059b094a934205dc059b01330593059b9342f9dd07b0
            5df804fb0000c8420000024300003443000070425f823b000000a0404f97
            310030b50a2289b005238de80c00494801224ff07e534849fef795ff0023
            0293029b464a934205dc029b01330293029b9342f9dd0a2204238de80c00
            414800224ff07e534049fef77eff00230393039b3b4a934205dc039b0133
            0393039b9342f9dd0a2203238de80c00354801224ff07e533149fef767ff
            00230493049b324a934205dc049b01330493049b9342f9dd0220fef722ff
            00230593059b284a934205dc059b01330593059b9342f9dd0a2403252349
            01224ff07e538de830002348fef741ff052301931b4901224ff07e530094
            1f48fef737ff00224ff07e538de830001c481a49fef72eff00230693069b
            134a934205dc069b01330693069b9342f9dd0f480a2204238de80c000146
            01224ff07e53fef717ff00230793079b074a934205dc079b01330793079b
            9342f9dd09b030bd00bf00008c42000070424f9731000000a64200000243
            efc594000000b442000090420000484200b50a228bb004238de80c005c49
            01224ff07e535b48fef7e9fe05230093019301224ff07e5358485849fef7
            dffe00230293029b564a934205dc029b01330293029b9342f9dd05230093
            019300224ff07e534e484c49fef7c9fe00230393039b4c4a934205dc039b
            01330393039b9342f9dd05230093019301224ff07e5346484249fef7b3fe
            00230493049b414a934205dc049b01330493049b9342f9dd052300930193
            00224ff07e5338483a49fef79dfe00230593059b354a934205dc059b0133
            0593059b9342f9dd05230093019301224ff07e532c482c49fef787fe0023
            0693069b2a4a934205dc069b01330693069b9342f9dd0523009301930022
            4ff07e5322482049fef771fe00230793079b204a934205dc079b01330793
            079b9342f9dd05230093019301224ff07e531a481649fef75bfe00230893
            089b154a934205dc089b01330893089b9342f9dd05230093019300224ff0
            7e530c480e49fef745fe00230993099b094a934205dc099b01330993099b
            9342f9dd0bb05df804fb0000c6420000f04200002a4300008c425f823b00
            4f9731000000204200b50a2289b004238de80c003f4800224ff07e533e49
            fef71bfe00230293029b3c4a934205dc029b01330293029b9342f9dd0523
            0093019300224ff07e5336483649fef705fe00230393039b314a934205dc
            039b01330393039b9342f9dd0f2203238de80c002e4801224ff07e532d49
            fef7eefd00230493049b264a934205dc049b01330493049b9342f9dd0220
            fef7a9fd00230593059b1e4a934205dc059b01330593059b9342f9dd0522
            02238de80c001d4801224ff07c531949fef7c8fd00230693069b134a9342
            05dc069b01330693069b9342f9dd0a2203238de80c00124801224ff07e53
            0d49fef7b1fd00230793079b0e4a934205dc079b01330793079b9342f9dd
            09b05df804fb0000a8420000f0424f9731000000884200008c420000aa42
            000096420000ac420000b0421fd6130010b5042384b00a24019315490122
            4ff07e5300941348fef781fd05230193124901224ff07e5300941048fef7
            77fd0323019300224ff07e5300940d480d49fef76dfd00230393039b0b4a
            934205dc039b01330393039b9342f9dd04b010bd00bf0000a84200000c43
            0000884200008c420000f0410000b0424f97310030b596488db00621fef7
            7efc052404230193934900224ff07e5300949148fef73ffd02250a238de8
            28008f4901224ff07e538e48fef734fd01224ff07e538c49009401948b48
            fef72bfd2846fef7f2fc00230393039b884a934205dc039b01330393039b
            9342f9dd0a2202238de80c007e4901224ff07e537948fef711fd08220323
            8de80c007d4901224ff07e537c48fef706fd052204238de80c0079480122
            4ff07e536f49fef7fbfc00230493049b714a934205dc049b01330493049b
            9342f9dd0320fef7b6fc05230093019301224ff07e5300206749fef7e2fc
            00230593059b654a934205dc059b01330593059b9342f9dd052300930193
            00224ff07e535c480021fef7ccfc00230693069b5a4a934205dc069b0133
            0693069b9342f9dd082203238de80c00554900224ff07e535248fef7b5fc
            052204238de80c00514900224ff07e534b48fef7aafc0220fef771fc0023
            0793079b474a934205dc079b01330793079b9342f9dd0a2202238de80c00
            002000224ff07e534349fef790fc00230893089b3c4a934205dc089b0133
            0893089b9342f9dd0320fef74bfc05230093019301224ff07e5338480021
            fef777fc00230993099b2f4a934205dc099b01330993099b9342f9dd0523
            0093019300224ff07e5300202c49fef761fc00230a930a9b244a934205dc
            0a9b01330a930a9b9342f9dd0220fef71cfc052404230193234901224ff0
            7e5300941448fef747fc002100224ff07e53009401941448fef73efc0a22
            02238de80c00002101224ff07e530c48fef733fcfef7d9fb00230b930b9b
            134a934205dc0b9b01330b930b9b9342f9dd0db030bd00bf0000dc420000
            0c43000048420000b8420000c84200008c42000016431fd613000000f041
            0000a0420000f0420000204300003443000002434f97310030b5504883b0
            0021fef728fa01214d48fef724fa4b48fef7a3f9044604214948fef76af9
            012c17d0022c5ad045480021fef726fa43480121fef722fa424b0822c3f8
            84213f480021fef7f6f93d480121fef7f2f903b030bd3a480021fef710fa
            21463848fef70cfa36480021fef7e4f921463448fef7e0f9344cfff775fe
            00230193019ba34205dc019b01330193019ba342f9dd2b48fef763f90228
            0546ecd12b480121fef7aef829462948fef7aaf827480321fef7a6f82548
            0421fef7a2f823480521fef79ef821480621fef79af81f480721fef796f8
            1d480821fef792f8a4e718480021fef7cbf916480121fef7c7f914480021
            fef7b1f912480121fef7adf913480121fef77df821461048fef779f80f48
            0321fef775f80d480421fef771f80b480521fef76df809480621fef769f8
            07480721fef765f805480821fef761f8fee7c405002000e100e07fba8c01
            d405002000b589b0fef7fefa0220fef71dfb00230193019b314a934205dc
            019b01330193019b9342f9ddfef765fc00230293029b2a4a934205dc029b
            01330293029b9342f9ddfef7f5fc00230393039b234a934205dc039b0133
            0393039b9342f9dd0220fef7f2fa00230493049b1c4a934205dc049b0133
            0493049b9342f9ddfef74efdfef7b0fd00230593059b154a934205dc059b
            01330593059b9342f9ddfef7b2fa00230693069b0d4a934205dc069b0133
            0693069b9342f9ddfef7a4fa00230793079b064a934205dc079b01330793
            079b9342f9dd09b05df804fb00bf4f9731001fd6130000b587b0fef78cfa
            0220fef7abfa00230093009b2b4a934205dc009b01330093009b9342f9dd
            fef7b5fd00230193019b244a934205dc019b01330193019b9342f9ddfef7
            4bfe00230293029b1d4a934205dc029b01330293029b9342f9dd0220fef7
            80fafef7c4fefef70eff00230393039b154a934205dc039b01330393039b
            9342f9ddfef74cfa00230493049b0d4a934205dc049b01330493049b9342
            f9ddfef73efa00230593059b064a934205dc059b01330593059b9342f9dd
            07b05df804fb00bf4f9731001fd6130000b5022087b0fef747fafef72fff
            00230193019b224a934205dc019b01330193019b9342f9ddfef7cbff0023
            0293029b1c4a934205dc029b01330293029b9342f9dd0220fef728fa0023
            0393039b144a934205dc039b01330393039b9342f9ddfff70af800230493
            049b0e4a934205dc049b01330493049b9342f9ddfef7eaf900230593059b
            074a934205dc059b01330593059b9342f9dd07b05df804fb00bf9f2e6300
            4f97310000b5022087b0fef7f3f9fff761f800230093009b294a934205dc
            009b01330093009b9342f9ddfff7f3f800230193019b224a934205dc019b
            01330193019b9342f9dd0220fef7d4f900230293029b1b4a934205dc029b
            01330293029b9342f9ddfff73ef900230393039b144a934205dc039b0133
            0393039b9342f9ddfff770f900230493049b0d4a934205dc049b01330493
            049b9342f9ddfef788f900230593059b064a934205dc059b01330593059b
            9342f9dd07b05df804fb00bf4f97310000b5022087b0fef793f9fef7e7fa
            00230193019b214a934205dc019b01330193019b9342f9ddfff7a1f90023
            0293029b1a4a934205dc029b01330293029b9342f9ddfff709fa00230393
            039b134a934205dc039b01330393039b9342f9ddfef7f9fd00230493049b
            0c4a934205dc049b01330493049b9342f9ddfef737f900230593059b054a
            934205dc059b01330593059b9342f9dd07b05df804fb4f97310000b50220
            85b0fef743f9fef72bfe00230093009b1b4a934205dc009b01330093009b
            9342f9ddfff773fa00230193019b144a934205dc019b01330193019b9342
            f9ddfff733fb00230293029b0d4a934205dc029b01330293029b9342f9dd
            fff7bffbfef7f3f800230393039b054a934205dc039b01330393039b9342
            f9dd05b05df804fb4f9731002de9f04131228eb040f28f13b0484ff0a041
            fdf7c3fd00230193019aad4b9a4205dc019a01320192019a9a42f9ddaa48
            0621fef753f8a9480421fef74ff8a8480521fef74bf8a7480221fef747f8
            a6480321fef743f800230293029aa34b9a4205dc029a01320292029a9a42
            f9dda0480621fef733f89f480421fef72ff89e480521fef72bf89d480221
            fef727f89c480321fef723f800230393039a934b9a4205dc039a01320392
            039a9a42f9dd90480621fef713f88f480421fef70ff88e480521fef70bf8
            8d480221fef707f88c480321fef703f800230493049a834b9a4205dc049a
            01320492049a9a42f9dd0026012384488449252206960796089609960a96
            0b960c960d96fdf780fc7d487f490222fdf7affcfdf73fff7d487d490222
            fdf7d4fd31467a480522fdf711fe7a4d774801210522fdf70bfe05227448
            0221fdf706fe29687248fdf70cfe314670484322fdf7fdfd6e4801214322
            fdf7f8fd05226b480221fdf7f3fd31466848fdf799fe67480121fdf795fe
            68490822684b4a604ff48040dff8a0811b68c1f88000d8f84870634a03eb
            83034ff0402e27f0400c5b000127c8f848c0cef85460c2f88061c2f88861
            c2f88461cef81070c1f88001cef80430c2f88071c2f8887108604f482968
            fdf7c6fd4a48fdf78dfc00b38cb19df81830412b22d0422b2ad0432b32d0
            442b3ad0452b42d0472b4ad0492b52d04a2b5ad04ff6e75200230593059b
            9342dddc059b01330593059b9342f9ddd6e7384806a92022fdf73afc0446
            d7e70023374803218df81830fdf793fdfff7bffce0e70023324803218df8
            1830fdf789fdfff727fdd6e700232d4803218df81830fdf77ffdfff783fd
            cce70023284803218df81830fdf775fdfff7cdfdc2e723480121fdf76efd
            00238df81830fff723feb8e700231e4801218df81830fdf761fdfff769fe
            aee719480621fdf75afd00238df81830fff78dfaa4e70023144805218df8
            1830fdf74dfdfef731f89ae7d40500201fd61300000020420000f0420000
            70420000b44200000c424f973100000048420000024300008c420000b842
            0000f041cc0500200020005024000020c4050020001000302000002000e1
            00e014000020000008420080034081f0004102e000bf83f0004330b54fea
            41044fea430594ea050f08bf90ea020f1fbf54ea000c55ea020c7fea645c
            7fea655c00f0e2804fea5454d4eb5555b8bf6d420cdd2c4480ea020281ea
            030382ea000083ea010180ea020281ea0303362d88bf30bd11f0004f4fea
            01314ff4801c4cea113102d0404261eb410113f0004f4fea03334cea1333
            02d0524263eb430394ea050f00f0a780a4f10104d5f1200e0ddb02fa0efc
            22fa05f2801841f1000103fa0ef2801843fa05f359410ee0a5f120050ef1
            200e012a03fa0efc28bf4cf0020c43fa05f3c01851ebe37101f0004507d5
            4ff0000edcf1000c7eeb00006eeb0101b1f5801f1bd3b1f5001f0cd34908
            5fea30004fea3c0c04f101044fea445212f5800f80f09a80bcf1004f08bf
            5fea500c50f1000041eb045141ea050130bd5fea4c0c404141eb010111f4
            801fa4f10104e9d191f0000f04bf01460020b1fa81f308bf2033a3f10b03
            b3f120020cda0c3208dd02f1140cc2f10c0201fa0cf021fa02f10ce002f1
            1402d8bfc2f1200c01fa02f120fa0cfcdcbf41ea0c019040e41aa2bf01eb
            0451294330bd6fea04041f3c1cda0c340edc04f11404c4f1200220fa04f0
            01fa02f340ea030021fa04f345ea030130bdc4f10c04c4f1200220fa02f0
            01fa04f340ea0300294630bd21fa04f0294630bd94f0000f83f4801306bf
            81f480110134013d4ee77fea645c18bf7fea655c29d094ea050f08bf90ea
            020f05d054ea000c04bf1946104630bd91ea030f1ebf0021002030bd5fea
            545c05d14000494128bf41f0004130bd14f580043cbf01f5801130bd01f0
            004545f0fe4141f470014ff0000030bd7fea645c1abf194610467fea655c
            1cbf0b46024650ea013406bf52ea033591ea030f41f4002130bd00bf90f0
            000f04bf0021704730b54ff4806404f132044ff000054ff0000150e700bf
            90f0000f04bf0021704730b54ff4806404f1320410f0004548bf40424ff0
            00013ee700bf42004feae2014fea31014fea02701fbf12f07f4393f07f4f
            81f06051704792f0000f14bf93f07f4f704730b54ff4607401f0004521f0
            004120e700bf50ea010208bf704730b54ff000050ae050ea010208bf7047
            30b511f0004502d5404261eb41014ff4806404f132045fea915c3ff4dcae
            4ff003025feadc0c18bf03325feadc0c18bf033202ebdc02c2f1200300fa
            03fc20fa02f001fa03fe40ea0e0021fa02f11444c1e600bf70b54ff0ff0c
            4cf4e06c1cea11541dbf1cea135594ea0c0f95ea0c0f00f0def82c4481ea
            030621ea4c5123ea4c5350ea013518bf52ea033541f4801143f4801338d0
            a0fb02ce4ff00005e1fb02e506f00042e0fb03e54ff00006e1fb03569cf0
            000f18bf4ef0010ea4f1ff04b6f5007f64f5407404d25fea4e0e6d4146eb
            060642eac62141ea55514feac52040ea5e504feace2eb4f1fd0c88bfbcf5
            e06f1ed8bef1004f08bf5fea500e50f1000041eb045170bd06f0004646ea
            010140ea020081ea0301b4eb5c04c2bfd4eb0c0541ea045170bd41f48011
            4ff0000e013c00f3ab8014f1360fdebf002001f0004170bdc4f10004203c
            35da0c341bdc04f11404c4f1200500fa05f320fa04f001fa05f240ea0200
            01f0004221f0004110ebd37021fa04f642eb06015eea430e08bf20ead370
            70bdc4f10c04c4f1200500fa04f320fa05f001fa04f240ea020001f00041
            10ebd37041f100015eea430e08bf20ead37070bdc4f1200500fa05f24eea
            020e20fa04f301fa05f243ea020321fa04f001f0004121fa04f220ea0200
            00ebd3705eea430e08bf20ead37070bd94f0000f0fd101f00046400041eb
            010111f4801f08bf013cf7d041ea060195f0000f18bf704703f000465200
            43eb030313f4801f08bf013df7d043ea0603704794ea0c0f0cea135518bf
            95ea0c0f0cd050ea410618bf52ea4306d1d181ea030101f000414ff00000
            70bd50ea410606bf1046194652ea430619d094ea0c0f02d150ea013613d1
            95ea0c0f05d152ea03361cbf104619460ad181ea030101f0004141f0fe41
            41f470014ff0000070bd41f0fe4141f4780170bd70b54ff0ff0c4cf4e06c
            1cea11541dbf1cea135594ea0c0f95ea0c0f00f0a7f8a4eb050481ea030e
            52ea03354fea013100f088804fea03334ff0805545ea131343ea12634fea
            022245ea111545ea10654fea00260ef000419d4208bf964244f1fd0404f5
            407402d25b084fea3202b61a65eb03055b084fea32024ff480104ff4002c
            b6eb020e75eb030e22bfb61a754640ea0c005b084fea3202b6eb020e75eb
            030e22bfb61a754640ea5c005b084fea3202b6eb020e75eb030e22bfb61a
            754640ea9c005b084fea3202b6eb020e75eb030e22bfb61a754640eadc00
            55ea060e18d04fea051545ea16754fea06164feac30343ea52734feac202
            5fea1c1cc0d111f4801f0bd141ea00014ff000004ff0004cb6e711f4801f
            04bf01430020b4f1fd0c88bfbcf5e06f3ff6afaeb5eb030c04bfb6eb020c
            5fea500c50f1000041eb045170bd0ef0004e4eea113114eb5c04c2bfd4eb
            0c0541ea045170bd41f480114ff0000e013c90e645ea060e8de60cea1355
            94ea0c0f08bf95ea0c0f3ff43baf94ea0c0f0ad150ea01347ff434af95ea
            0c0f7ff425af104619462ce795ea0c0f06d152ea03353ff4fdae10461946
            22e750ea410618bf52ea43067ff4c5ae50ea41047ff40daf52ea43057ff4
            ebae12e74fea4102b2f1e04324bfb3f5001cdcf1fe5c0dd901f0004c4fea
            c0024cea5070b2f1004f40eb830008bf20f00100704711f0804f21d113f1
            3872bcbf01f00040704741f480114fea5252c2f11802c2f1200c10fa0cf3
            20fa02f018bf40f001004feac1234fead32303fa0cfc40ea0c0023fa02f3
            4fea4303cce77fea625307d150ea01331ebf4ff0fe4040f44000704701f0
            004040f0fe4040f40000704700bf80f0004002e000bf81f0004142001fbf
            5fea410392ea030f7fea226c7fea236c6ad04fea1262d2eb1363c1bfd218
            414048404140b8bf5b42192b88bf704710f0004f40f4000020f07f4018bf
            404211f0004f41f4000121f07f4118bf494292ea030f3fd0a2f1010241fa
            03fc10eb0c00c3f1200301fa03f100f0004302d5494260eb4000b0f5000f
            13d3b0f1807f06d340084fea310102f10102fe2a51d2b1f1004f40ebc250
            08bf20f0010040ea03007047490040eb000010f4000fa2f10102edd1b0fa
            80fcacf1080cb2eb0c0200fa0cf0aabf00ebc25052421843bcbfd0401843
            704792f0000f81f4000106bf80f400000132013bb5e74fea41037fea226c
            18bf7fea236c21d092ea030f04d092f0000f08bf0846704790ea010f1cbf
            0020704712f07f4f04d1400028bf40f00040704712f100723cbf00f50000
            704700f0004343f0fe4040f4000070477fea226216bf08467fea23630146
            420206bf5fea412390ea010f40f4800070474ff0000304e000bf10f00043
            48bf40425fea000c08bf704743f0964301464ff000001ce050ea010208bf
            70474ff000030ae000bf50ea010208bf704711f0004302d5404261eb4101
            5fea010c02bf84460146002043f0b64308bfa3f18053a3f50003bcfa8cf2
            083aa3ebc25310db01fa02fc634400fa02fcc2f12002bcf1004f20fa02f2
            43eb020008bf20f00100704702f1200201fa02fcc2f1200250ea4c0021fa
            02f243eb020008bf20eadc7070474ff0ff3c06e000bf4ff0010c02e000bf
            4ff0010c4df804cd4fea40024fea41037fea226c18bf7fea236c11d001b0
            52ea530c18bf90ea010f58bfb2eb030088bfc81738bf6feae17018bf40f0
            010070477fea226c02d15fea402c05d17fea236ce4d15fea412ce1d05df8
            040b704700bf844608466146ffe70fb5fff7c9ff002848bf10f1000f0fbd
            4df808edfff7f4ff0cbf012000205df808fb00bf4df808edfff7eaff34bf
            012000205df808fb00bf4df808edfff7e0ff94bf012000205df808fb00bf
            4df808edfff7d2ff94bf012000205df808fb00bf4df808edfff7c8ff34bf
            012000205df808fb00bf4fea4002b2f1fe4f0fd34ff09e03b3eb12620dd9
            4fea002343f0004310f0004f23fa02f018bf404270474ff00000704712f1
            610f01d1420205d110f0004008bf6ff0004070474ff00000704770b50f4e
            0f4d761bb61018bf002405d0013455f8043b9847a642f9d10a4e0b4d00f0
            e4f8761bb61018bf002406d0013455f8043b9847a642f9d170bd70bd00bf
            44450000444500004c45000044450000024b13b1024800f005b870470000
            0000b1430000014600200246034600f016b838b5084b084ded1aac1018bf
            ed1805d0013c55f8043d9847002cf9d1bde8384000f0b2b84c4500005045
            00002de9f047254c064625688846d5f8484192469946c4b360681f2817dc
            411c76b104eb8003c3f888a0d4f88851012282401543022ec4f88851c3f8
            08911ed0831c6160002044f82380bde8f087144b03b34ff4c870aff30080
            0446d0b1d5f84831002784e888003846c5f848410121c4f88871c4f88c71
            002ee1d0d1e7d4f88c311a43c4f88c21dae705f5a674c5f84841c1e74ff0
            ff30bde8f08700bf284500000000000000000000140000001c0000002400
            00002c000000340000003c000000440000004c000000540000005c000000
            640000006c000000740000007c000000840000008c000000000102040810
            204080010204081020408000000000000000100000001800000020000000
            280000003000000038000000400000004800000050000000580000006000
            000068000000700000007800000080000000880000000001000102020303
            4300000028000020f8b500bff8bc08bc9e467047f8b500bff8bc08bc9e46
            704791430000e5040000c104000000000000003b5808c00e1602801d2c04
            003b5808003b5808003b5808003b5808020000004b000000000000001403
            00207c030020e40300200000000000000000000000000000000000000000
            000000000000000000000000000000002445000000000000000000000000
            000000000000000000000000000000000000000000000000000000000000
            000000000000000000000000000000000000000000000000000000000000
            000000000000000000000000000000000000000000000000000000000000
            00000000000000000000000001000000000000000e33cdab34126de6ecde
            05000b000000000000000000000000000000000000000000000000000000
            000000000000000000000000000000000000000000000000000000000000
            000000000000000000000000000000000000000000000000000000000000
            000000000000000000000000000000000000000000000000000000000000
            000000000000000000000000000000000000000000000000000000000000
            000000000000000000000000000000000000000000000000000000000000
            000000000000000000000000000000000000000000000000000000000000
            000000000000000000000000000000000000000000000000000000000000
            000000000000000000000000000000000000000000000000000000000000
            000000000000000000000000000000000000000000000000000000000000
            000000000000000000000000000000000000000000000000000000000000
            000000000000000000000000000000000000000000000000000000000000
            000000000000000000000000000000000000000000000000000000000000
            000000000000000000000000000000000000000000000000000000000000
            000000000000000000000000000000000000000000000000000000000000
            000000000000000000000000000000000000000000000000000000000000
            000000000000000000000000000000000000000000000000000000000000
            000000000000000000000000000000000000000000000000000000000000
            000000000000000000000000000000000000000000000000000000000000
            000000000000000000000000000000000000000000000000000000000000
            000000000000000000000000000000000000000000000000000000000000
            000000000000000000000000000000000000000000000000000000000000
            000000000000000000000000000000000000000000000000000000000000
            000000000000000000000000000000000000000000000000000000000000
            000000000000000000000000000000000000000000000000000000000000
            000000000000000000000000000000000000000000000000000000000000
            000000000000000000000000000000000000000000000000000000000000
            000000000000000000000000000000000000000000000000000000000000
            000000000000000000000000000000000000000000000000000000000000
            0000000000000000
            <crc>
                06ca
            </crc>
        </region>
    </nvm>
</Actel_Data_File>
