<Actel_Data_File>
    <format name="NVM File" version="01.00.00"/>
    <header>
        <die>
            M2S010
        </die>
        <family>
            SmartFusion2
        </family>
        <module>
            
        </module>
        <package>
            144 TQ
        </package>
        <version>
            11.8.1.12
        </version>
    </header>
    <nvm>
        <region name="PGM_store" address="0x000000" retrieveAddressFromFile="false" size="7968" format="HEX" type="Data Storage" wordSize="8" numberWords="7968" memFile="C:\Users\Hiperwall\Desktop\Servo-arm3 - Copy\SoftConsole\digikey\Release\digikey.hex" memType="INTELHEX" memFileTimeStamp="" clientType="public" program="true">
            00000120910100007f030000810300008303000085030000870300000000
            0000000000000000000000000000890300008b030000000000008d030000
            8f0300009103000093030000e10c0000fd0c0000990300009b0300009d03
            00009f030000a1030000a3030000a5030000a7030000a9030000ab030000
            49170000af030000b1030000b3030000b5030000f1050000b9030000bb03
            0000bd030000bf030000c1030000c3030000c5030000bd0d0000650e0000
            cb030000cd030000cf030000d1030000d3030000d50300006d170000c517
            0000db030000dd030000df030000e1030000e3030000e5030000e7030000
            e9030000eb030000ed030000ef030000f1030000f3030000f5030000f703
            0000f9030000fb030000fd030000ff030000010400000304000005040000
            07040000090400000b0400000d0400000f04000011040000130400001504
            000017040000190400001b0400001d0400001f0400002104000023040000
            2504000027040000290400002b0400002d0400002f040000310400003304
            000000000000000000004ff0000bdff8be020068dff8b612096801f00301
            00f01c00142801d14bf0020b002901d04bf0010bbbf1000f05d0a748a749
            dff8722200f09ff8a64880470bf0020abaf1000f0cd0dff86e02dff86e12
            02680b680fb44ff000024ff0ff0302600b609d4800220123022808d1dff8
            3e120a60dff842120a60dff836120b60012808d1dff82e120a60dff82a12
            0a60dff81e120b609148002809d191489149924a00f032f891489249924a
            00f02df892489249934a00f028f892489349dff8e62100f05af8bbf1000f
            12d090489049dff8da2100f051f80bf0020abaf1000f07d00fbc02600b60
            00bfaff30080aff30080dff820020ff2030e00474ff000004ff00001dff8
            14f2fee72de9f841884225d0b2eb010200d5fee740ea010313f0030302d0
            00f01df819e04ff0000390461211f7d09a421cbff0c8f0c103f10103f8d1
            08f00f08b8f1000f08d004780c7000f1010001f10101b8f10108f6d1bde8
            f88108b54ff0000303780b7000f1010001f10101013af7d108bd884237d0
            00f00306002e14d04ff00405a5eb06044ff0080707fb06f8914669fa08f9
            002c07d080f8009069fa07f900f10100013cf5e74ff000060f46091a8846
            0911914614461546b14206d018bfa0e8340206f10106b142f8d108f00f08
            b8f1000f07d002704fea322200f10100b8f10108f4e77047fee7fee7fee7
            fee7fee7fee7fee7fee7fee7fee7fee7fee7fee7fee7fee7fee7fee7fee7
            fee7fee7fee7fee7fee7fee7fee7fee7fee7fee7fee7fee7fee7fee7fee7
            fee7fee7fee7fee7fee7fee7fee7fee7fee7fee7fee7fee7fee7fee7fee7
            fee7fee7fee7fee7fee7fee7fee7fee7fee7fee7fee7fee7fee7fee7fee7
            fee7fee7fee7fee7fee7fee7fee7fee7fee7fee7fee7fee7fee7fee7fee7
            fee7fee7fee7fee7fee7fee7fee7fee7fee7fee7fee7fee7fee770470000
            0000a2a2a2a2008003400880034010800340308003403480034038800340
            18080240000000f000200000012085130000000000000000000000000000
            0000000090010000b0040000b0040000c01a0000c01a0000000000206004
            002060040020100600201006002000f00020e9170000b514000000000000
            10b5054c237833b9044b13b10448aff300800123237010bd600400200000
            0000941a00000c4b43b10c4810b50c49aff300800c48036823b910bd0a48
            036833b97047094b002bf7d0bde810401847064b002bf5d0184700bf0000
            0000941a000064040020000000200000000001607047006870470eb503fa
            01f303ea020301686fea020201ea020141ea030101600ebd006800ea0200
            20fa01f0704701807047008870470eb503fa01f303ea020301886fea0202
            01ea020141ea030101800ebd008800ea020020fa01f07047017070470078
            70470eb503fa01f303ea020301786fea020201ea020141ea030101700ebd
            007800ea020020fa01f070470b4b10b50b4c198823683bb10a4a89b21068
            98470023094a23601370084b1a46196841f0010119601368db07fcd410bd
            9c0400208404002094040020a104002000600140924bf0b55c689a68e4b2
            1440a10785b01fd4e10701d405b0f0bd8d4d2b78022b00f09480052b2ad0
            012b57d0874a894c936823f00103936023683bb1864a0021106898470023
            854a2360137000232b70e1e77f4d1a692b78d0b2052b00f25081dfe813f0
            cb00d700d700df00a00089007b4b1a68002a40f0c980e207cbd5794c2368
            002b00f0fc802368002b6bd06f4926680b68744823f0040307680b604b68
            03f001030393039a92b1002e00f0678100227d1e01e096420ad015f8013f
            01320b614b6803f001030393039b002bf2d1236817449a1a076022609ce7
            634e33889bb2002b37d0594934880b68dff88ce123f00403def800700b60
            4b68a4b203f001030193019a92b1002c00f03c810022781e01e094420ad0
            10f8013f01320b614b6803f001030193019b002bf2d133889bb2934200f2
            ed8000224a4b32801b68002b00f0ee8002232b7064e7454c2368002b40f0
            a880414b1b78002b3ff45baffff72cff57e70321384a936823f001039360
            29704fe716043ff57aaf364b354e1a683368507033b11046022198470023
            324a3360137000232b70e3073ff546af05b0f0bd17042dd4314a2b491388
            0e689bb2334413f8013cf12b00f0bd802d49138809889bb28b4206d21788
            1388bfb201339bb2f055138013889bb29942dcd11c4f13883a6899b2002a
            d4d03046904700231a4a3b601370cde71204cdd5f12800f0ab80164b1a68
            002ac6d01b689847ffe615047ff5fdae114b1a68002af5d1f7e61304b9d5
            144b1b789842ead1002304210f4a297013801188074e13883668013389b2
            9bb213807054a6e700600140a00400208404002094040020a10400207c04
            00208804002090040020820400209c0400209e040020800400208c040020
            424b1b68002b4fd04148984720602368002b7ff4f9ae03213e4a936823f0
            010393602970f0e63b4927680b68384823f00403d0f800e00b604b6803f0
            01030293029a92b1002f5cd000220ef1ff3601e097420ad016f8013f0132
            0b614b6803f001030293029b002bf2d1236893427ff63aaf21680eeb0203
            8a1a036022608ae6254e3368002b3ff446af244a002110683ce733881744
            9a1a92b2cef80070328079e603232b7076e61d4b1b78002b3ff4abaefff7
            43fea7e61a4f11881388d7f800e08ab29bb2b054013bbef1000f3ff422af
            3a68f05c90471de700260422124b2a701e8019881a8889b2013292b21a80
            0a4a1b8812689bb25054d6540de73246a6e63a46b1e72246d1e600bf9804
            002090040020006001408404002094040020a10400207c0400209c040020
            2a4a036890422de9f04f1c68d3f81880d3f804c0d3f828e01f6b5e6bdd69
            2cd04ff0030b4ff0080a214a22491346d1f8489080f804b002601f4849f4
            8069c1f84890c0f880a1886c20f480608864116821f00041116024f00104
            1c60c3f81880c3f804c01a6842f001021a60c3f828e01f635e63dd61bde8
            f08f02234ff004090c490e4a03718b6c02600b4843f400738b64c0f88091
            886c134620f400708864116821f000411160d5e700bf4805002000100140
            0080034000e100e0001000400268f0b49368dd053fd40369c768bb4211d2
            85682b44ee1901e09e420bd013f8011b51619468591be4050161f5d58f42
            01d9f0bc70479368db0511d4c3698569ab4225d246693344354401e09d42
            07d013f8011b516191689c1bc461cc05f5d5436a002be5d0c16983699942
            e1d3906810f48070ddd1202301e0013bd9d050619168c905f9d5f0bc7047
            0169c768cee7436a002bebd1cce710b590f8803082b0022b0cd0012b18d0
            03689a68520604d41a6900929a685206fad502b010bd0446236803e01969
            626f00911ab99a685106f8d5f2e700989047f2e7026893685c06ebd4036b
            c16a14699942019404d9826a0199d154036b02689168013349060363f0d5
            02b010bd00bf70b5036882b01a6a044692071d460ed590f88020022a36d0
            012a9a6803d190e01a6901929a685206fad50222da602a6ad60709d594f8
            8020022a28d02046fff75bff23680122da602a6ad00648d42a6a51075cd4
            2a6a12070bd5da6a94f8801042f008020229da625cd001297fd00822da60
            2b6a9b060dd402b070bd1969626f0191002a59d19a685606f7d5cde7a26f
            5a61d7e72046fff77bff236a256b002b63d000221021236862626261a261
            e261d9609a6a0a439a620026da6a204642f00c022661da62fff717ffe36f
            266313b12946a06a984720222368da6002b070bd2046fff755ff236a2bb1
            a06a216b98472046fff701ff01221021236862629a6a22f010029a62d960
            2a6a5107a2d5da6a204642f00402da62fff78efe04222368da6097e71a68
            a16f22f47f0222f47f4242f480721a60596199e7019890472368a1e75006
            3ff571af226be16a18699142019004d9a36a01999954226b236899680132
            49062263f0d55fe72368a4e7002320462361fff7c0fe236878e7684620f0
            07018d4601b50348fff73affbde801408546704748050020684620f00701
            8d4601b50348fff72cffbde8014085467047c4040020f0b5264cb2f5803f
            27684fea870404eb07054feac5164fea850506f1844605f1402e0ef5803e
            06f52016c6f8c431cef80400cef80810def80c604fea16464fea0646cef8
            0c601ed80021def80c0092b2134b0243cef80c20196101250020e3199a00
            02f1402202f58032d168db0103f1844303f5201341f4e001d160c3f8c051
            c3f8cc01f0bd064ba2f5803201f5803100f580301a61d9609860dee7a804
            0020ac040020684620f007018d4631b50124224d23492a6802eb82039b00
            02f5287003f1402341f8204003f58033d9682244042a21f4e001d96008bf
            0023194c18bf2a60226908bf2b607ab11749a0680b68042b0cbf00230133
            0b60237de168fff77fffbde83140854670472b6803eb83039b0003f14023
            03f58033db6813f4e003efd10120084962682b6020700b60002ae7d09047
            bde8314085467047a404002000002842ac040020a8040020684620f00701
            8d46264b31b51b6813f4706f1cd0244c21688b005a18d20102f1844202f5
            2012d2f808223ab102201f4a5568107015b1a84721688b000b44db0103f1
            844303f52013d3f80c320bbb154b1b6813f4704f05d00420144b5a681870
            02b19047bde831400123114a1149c2f8c8318546c2f8803ac2f84834c1f8
            803ac2f8c836c1f8843ac2f84839c1f8883a70470320054b5a681870002a
            d7d09047d5e700bf00400140a4040020ac040020000028420400284220b1
            072b02d8b2f5005f00d37047f0b50f4615461e46044683b0d1b207f10800
            fff71efb6a1102f4ff6242ea060107f10c00fff715fb276007f11000fff7
            12fb82070cd520680430fff70cfb23688df8070003f11000fff705fb8307
            f2d40023237103b0f0bd00bf98b191b18ab170b504460d468e1820681030
            fff7f3fac307f9d515f8011b2068fff7eafab542f2d170bd7047f8b508b1
            01b112b900252846f8bd04460068174610300e46fff7dafa2379820743ea
            00032371efd50025013e01e0af42ebd0206801350430fff7cafa06f8010f
            20681030fff7c4fa2379034323718307edd42846f8bd00bf28b100220379
            0271c3f382007047ff20704700bf38b5104b082905465c5c00680cd90c30
            fff7a8fa2b6844ea0001c9b203f10c00bde83840fff79cba0830fff79bfa
            2b6844ea0001c9b203f10800bde83840fff78fba00bff419000038b5104b
            082905465c5c00680cd90c30fff784fa2b6820ea0401c9b203f10c00bde8
            3840fff778ba0830fff777fa2b6820ea0401c9b203f10800bde83840fff7
            6bba00bff419000070b5044616461d46016001f108000021fff75efa2068
            00210c30fff759fa31462068fff725fa206829460430fff720fa20680021
            1030fff71bfa206800211830fff716fa206800212030fff711fa20680021
            2830fff70cfa206800213030fff707fa206800213830fff702fa20680021
            4030fff7fdf9206800214830fff7f8f9206800215030fff7f3f920680021
            5830fff7eef9206800216030fff7e9f9206800216830fff7e4f920680021
            7030fff7dff9206800217830fff7daf9206800218030fff7d5f920680021
            bde870408830fff7ceb970b54c1e0f2c1dd8c2b105460c4616460d4b0068
            53f8213000211844fff7bef90a4b286853f8243031461844fff7b6f92146
            2846bde87040fff730bfbde87040fff750bf70bd00bf4c1a0000081a0000
            70b506460c46027101f180053160204600210434fff7caf9ac42f8d13379
            012b21d00ad3022b07d130684ff0ff31bde870408030fff78ab970bd3068
            ff218030fff7b4f93068ff218430fff7aff93068ff218830fff7aaf93068
            ff21bde870408c30fff7a3b930684ff6ff718030fff785f930684ff6ff71
            bde870408430fff77db900bf1f290b4600d970470068114600eb8300fff7
            5ab938b503790446012b0d4621d008d3022b05d1bde838400068a030fff7
            4bb938bd0068c9b2a030fff775f92068c5f30721a430fff76ff92068c5f3
            0741a830fff769f92068290eac30bde83840fff762b9006889b2a030fff7
            45f92068290ca430bde83840fff73eb91f2900d9704710b5046804eb8104
            2046fff74ef940f00801c9b22046bde81040fff744b91f2900d9704710b5
            046804eb81042046fff73cf920f008012046bde81040fff733b900bf38b5
            012403790546012b04fa01f420d009d3022b06d100682146bde838408030
            fff7f0b838bd006821468030fff71af92868210a8430fff715f92868210c
            8830fff710f92868210e8c30bde83840fff709b9006821468030fff7ecf8
            2868210c8430bde83840fff7e5b800bf4ff602020b4bd3f84c1191420bd1
            d3f8982042f48072c3f89820d3f8982022f08062c3f89820044a536943f4
            00735361fff73eb80080034000ed00e0f0b42e4a82b0d2f8983013f08063
            24d1d2f89810c9043ad50124032102208df806108df807108df800308df8
            02308df801408df803408df804008df80500d2f89c3002a9c3f382130b44
            13f8083ca34231d002d31a491b4b08e0d2f850111a4a11f0040f194b18bf
            134615490b60184f184e194d194c1a481a4a1b493b6033602b6023600360
            116002b0f0bc7047174b0b4a0f4913600b600e4f104e104d1148114c0d4a
            12493b6033602b600460116002b0f0bc70474ff40043d6e7008003400400
            002040420f0080f0fa0240787d011400002018000020080000200c000020
            100000201c000020c00e1602003b5808801d2c04f0b540f69f738bb00422
            4ff0a0419448fff7f2fd00230193019a924b9a4205dc019a01320192019a
            9a42f9dd00230093009a8d4b9a4205dc009a01320092009a9a42f9dd2022
            002102a800f09bf90123292286498648fff707fd0c2285498448fff736fd
            fff752ff022283498348fff755fe052200218148fff792fe052201217e48
            fff78dfe052202217c48fff788fe7b4b7a481968fff78dfe432200217748
            fff77efe432201217448fff779fe052202217248fff774fe00217048fff7
            aefe01216e48fff7aafe4ff0080c10224ff0600e50214ff480464ff04025
            00200127684b634cc3f804c05a60674a83f823e3dff89cc183f824131168
            c3f88060dcf848e001eb81012ef04002ccf848205f4a6865c2f88001c2f8
            8801c2f884012f61c3f8806169604e4dc2f88071c2f888711e602046fff7
            0efd18b39df80830412b2cd0422b38d0432b44d0442b50d0452b5cd0472b
            68d0492b74d04a2be9d100260122082128468df80860fff7affd28463246
            0821fff7aafd2046fff7ebfc0028dbd1202202a92046fff7b8fc0028d4d1
            2046fff7dffc0028fad1f2e701220026114628468df80860fff790fd3246
            01212846fff78bfdbce700262846012202218df80860fff782fd32460221
            2846fff77dfdaee700262846012203218df80860fff774fd324603212846
            fff76ffda0e700262846012204218df80860fff766fd324604212846fff7
            61fd92e700262846012205218df80860fff758fd324605212846fff753fd
            84e700262846012206218df80860fff74afd324606212846fff745fd76e7
            00262846012207218df80860fff73cfd324607212846fff737fd68e7dc05
            00201fd613004f97310000200050d40500202400002000100030cc050020
            2000002000e100e014000020000008420080034008b50c2205490648fff7
            18fc4ff0402301221a61bff34f8f08bd00bf24000020d405002000b50021
            83b01248fff7befd01211048fff7bafd00210e48fff7c8fd01210c48fff7
            c4fd00210a48fff79cfd01210848fff798fd0021074a0191019b9342fbdc
            019b01330193019b9342f9ddf4e700bfcc0500207fba8c0100214ff48042
            0448044bc0f88811c3f880200348fff78cbd0000084200e100e0cc050020
            70b50f4e0f4d761bb61018bf002405d0013455f8043b9847a642f9d10a4e
            0b4d00f044f9761bb61018bf002406d0013455f8043b9847a642f9d170bd
            70bd00bfac1a0000ac1a0000b41a0000ac1a000070b4860746d0541e002a
            41d0cab2034602e014f1ff343bd303f8012b9d07f8d1032c2ed9cdb245ea
            05250f2c45ea054519d9264603f11002103e0f2e42f8105c42f80c5c42f8
            085c42f8045c02f11002f2d8a4f1100222f00f0204f00f041032032c1344
            0dd91e462246043a032a46f8045bfad8221f22f003020432134404f00304
            2cb1c9b21c4403f8011b9c42fbd170bc704714460346c2e700bf024b13b1
            024800f005b8704700000000f5180000002301461a46184600f01eb838b5
            0a4c0a4d641ba4100ad004f18043013b05eb8305013c55f804399847002c
            f9d1bde8384000f0c1b800bfb81a0000b41a0000704700bf704700bf2de9
            f8432c4d0646286898460f469146fff7f2ff294b1c68d4f84831002b3ed0
            5a681f2a1cdc02f1010e76b1012103eb8204c4f88890d3f8880191400843
            022ec3f88801c4f8088123d00232c3f804e0286843f82270fff7d1ff0020
            bde8f883174b0bb34ff4c870aff300800346d8b10020d4f848114ff0010e
            586019600246c4f84831c3f88801c3f88c01002edcd0cce7d3f88c010143
            c3f88c11d5e704f5a673c4f84831bbe72868fff7a7ff4ff0ff30bde8f883
            00bf58040020901a00000000000000010204081020408001020408102040
            8000000000000000140000001c000000240000002c000000340000003c00
            0000440000004c000000540000005c000000640000006c00000074000000
            7c000000840000008c000000000000001000000018000000200000002800
            000030000000380000004000000048000000500000005800000060000000
            680000007000000078000000800000008800000030000020f8b500bff8bc
            08bc9e467047f8b500bff8bc08bc9e467047d5180000d5040000b1040000
            000000000000000000000000003b5808801d2c04003b5808003b5808003b
            5808003b5808c00e16020200000048656c6c6f20576f726c640000000000
            1c03002084030020ec030020000000000000000000000000000000000000
            000000000000000000000000000000000000000000000000000000000000
            000000000000000000000000000000000000000000000000000000000000
            000000000000000000000000000000000000000000000000000000000000
            000000000000000000000000000000000000000000000000000000000000
            000000000000000000000000000001000000000000000e33cdab34126de6
            ecde05000b00000000000000000000000000000000000000000000000000
            000000000000000000000000000000000000000000000000000000000000
            000000000000000000000000000000000000000000000000000000000000
            000000000000000000000000000000000000000000000000000000000000
            000000000000000000000000000000000000000000000000000000000000
            000000000000000000000000000000000000000000000000000000000000
            000000000000000000000000000000000000000000000000000000000000
            000000000000000000000000000000000000000000000000000000000000
            000000000000000000000000000000000000000000000000000000000000
            000000000000000000000000000000000000000000000000000000000000
            000000000000000000000000000000000000000000000000000000000000
            000000000000000000000000000000000000000000000000000000000000
            000000000000000000000000000000000000000000000000000000000000
            000000000000000000000000000000000000000000000000000000000000
            000000000000000000000000000000000000000000000000000000000000
            000000000000000000000000000000000000000000000000000000000000
            000000000000000000000000000000000000000000000000000000000000
            000000000000000000000000000000000000000000000000000000000000
            000000000000000000000000000000000000000000000000000000000000
            000000000000000000000000000000000000000000000000000000000000
            000000000000000000000000000000000000000000000000000000000000
            000000000000000000000000000000000000000000000000000000000000
            000000000000000000000000000000000000000000000000000000000000
            000000000000000000000000000000000000000000000000000000000000
            000000000000000000000000000000000000000000000000000000000000
            000000000000000000000000000000000000000000000000000000000000
            000000000000000000000000000000000000000000000000000000000000
            000000000000000000000000000000000000000000000000000000000000
            000000000000000000000000000000000000000000000000000000000000
            00000000000000000000e005002000000000
            <crc>
                2c97
            </crc>
        </region>
    </nvm>
</Actel_Data_File>
